# Analytical Fluid Flux at Top Boundary over Time
# Calculated as: Q = π·Re² · q_z where q_z = -(k/μ) ∂p/∂z|_{z=H}
# k (permeability) = 1.9000e-13 m²
# μ (viscosity) = 1.0000e-03 Pa·s
# Re (radius) = 1.0000 m
# H (height) = 1.0000 m
#
# Time [s]         Flux Rate Q [m³/s]      Note
#----------------------------------------------------------------------
  0.000000e+00       -0.000000000000e+00  # t=0: no drainage yet
  1.000000e-03        3.557339741310e-04  # t=dt: drainage begins
  2.000000e-03        2.515419054064e-04
  3.000000e-03        2.053831057244e-04
  4.000000e-03        1.778669870655e-04
  5.000000e-03        1.590890696126e-04
  6.000000e-03        1.452277867989e-04
  7.000000e-03        1.344548040639e-04
  8.000000e-03        1.257709527032e-04
  9.000000e-03        1.185779913770e-04
  1.000000e-02        1.124929599357e-04
  1.100000e-02        1.072578288522e-04
  1.200000e-02        1.026915528622e-04
  1.300000e-02        9.866285262721e-05
  1.400000e-02        9.507390371668e-05
  1.500000e-02        9.185011716596e-05
  1.600000e-02        8.893349353274e-05
  1.700000e-02        8.627816176251e-05
  1.800000e-02        8.384730180215e-05
  1.900000e-02        8.161097073794e-05
  2.000000e-02        7.954453480627e-05
  2.100000e-02        7.762751732003e-05
  2.200000e-02        7.584273811641e-05
  2.300000e-02        7.417566117504e-05
  2.400000e-02        7.261389339638e-05
  2.500000e-02        7.114679481818e-05
  2.600000e-02        6.976517212443e-05
  2.700000e-02        6.846103519717e-05
  2.800000e-02        6.722740193700e-05
  2.900000e-02        6.605814043439e-05
  3.000000e-02        6.494784032711e-05
  3.100000e-02        6.389170717165e-05
  3.200000e-02        6.288547511469e-05
  3.300000e-02        6.192533423090e-05
  3.400000e-02        6.100786970088e-05
  3.500000e-02        6.013001061361e-05
  3.600000e-02        5.928898664245e-05
  3.700000e-02        5.848229120170e-05
  3.800000e-02        5.770764996746e-05
  3.900000e-02        5.696299386269e-05
  4.000000e-02        5.624643577678e-05
  4.100000e-02        5.555625042389e-05
  4.200000e-02        5.489085685196e-05
  4.300000e-02        5.424880319964e-05
  4.400000e-02        5.362875336788e-05
  4.500000e-02        5.302947532858e-05
  4.600000e-02        5.244983083830e-05
  4.700000e-02        5.188876636253e-05
  4.800000e-02        5.134530504605e-05
  4.900000e-02        5.081853959086e-05
  5.000000e-02        5.030762592337e-05
  5.100000e-02        4.981177755044e-05
  5.200000e-02        4.933026051814e-05
  5.300000e-02        4.886238889942e-05
  5.400000e-02        4.840752074690e-05
  5.500000e-02        4.796505445604e-05
  5.600000e-02        4.753442549074e-05
  5.700000e-02        4.711510343035e-05
  5.800000e-02        4.670658930162e-05
  5.900000e-02        4.630841316436e-05
  6.000000e-02        4.592013192307e-05
  6.100000e-02        4.554132734026e-05
  6.200000e-02        4.517160423023e-05
  6.300000e-02        4.481058881440e-05
  6.400000e-02        4.445792722164e-05
  6.500000e-02        4.411328411877e-05
  6.600000e-02        4.377634145827e-05
  6.700000e-02        4.344679733158e-05
  6.800000e-02        4.312436491752e-05
  6.900000e-02        4.280877151691e-05
  7.000000e-02        4.249975766480e-05
  7.100000e-02        4.219707631329e-05
  7.200000e-02        4.190049207814e-05
  7.300000e-02        4.160978054344e-05
  7.400000e-02        4.132472761881e-05
  7.500000e-02        4.104512894472e-05
  7.600000e-02        4.077078934128e-05
  7.700000e-02        4.050152229694e-05
  7.800000e-02        4.023714949348e-05
  7.900000e-02        3.997750036421e-05
  8.000000e-02        3.972241168256e-05
  8.100000e-02        3.947172717839e-05
  8.200000e-02        3.922529717997e-05
  8.300000e-02        3.898297827924e-05
  8.400000e-02        3.874463301865e-05
  8.500000e-02        3.851012959775e-05
  8.600000e-02        3.827934159810e-05
  8.700000e-02        3.805214772488e-05
  8.800000e-02        3.782843156415e-05
  8.900000e-02        3.760808135434e-05
  9.000000e-02        3.739098977113e-05
  9.100000e-02        3.717705372454e-05
  9.200000e-02        3.696617416750e-05
  9.300000e-02        3.675825591499e-05
  9.400000e-02        3.655320747303e-05
  9.500000e-02        3.635094087687e-05
  9.600000e-02        3.615137153769e-05
  9.700000e-02        3.595441809731e-05
  9.800000e-02        3.576000229035e-05
  9.900000e-02        3.556804881330e-05
  1.000000e-01        3.537848520023e-05
  1.010000e-01        3.519124170447e-05
  1.020000e-01        3.500625118614e-05
  1.030000e-01        3.482344900504e-05
  1.040000e-01        3.464277291854e-05
  1.050000e-01        3.446416298433e-05
  1.060000e-01        3.428756146765e-05
  1.070000e-01        3.411291275266e-05
  1.080000e-01        3.394016325795e-05
  1.090000e-01        3.376926135572e-05
  1.100000e-01        3.360015729459e-05
  1.110000e-01        3.343280312581e-05
  1.120000e-01        3.326715263259e-05
  1.130000e-01        3.310316126258e-05
  1.140000e-01        3.294078606314e-05
  1.150000e-01        3.277998561941e-05
  1.160000e-01        3.262071999498e-05
  1.170000e-01        3.246295067498e-05
  1.180000e-01        3.230664051160e-05
  1.190000e-01        3.215175367179e-05
  1.200000e-01        3.199825558714e-05
  1.210000e-01        3.184611290580e-05
  1.220000e-01        3.169529344630e-05
  1.230000e-01        3.154576615325e-05
  1.240000e-01        3.139750105484e-05
  1.250000e-01        3.125046922201e-05
  1.260000e-01        3.110464272919e-05
  1.270000e-01        3.095999461670e-05
  1.280000e-01        3.081649885450e-05
  1.290000e-01        3.067413030746e-05
  1.300000e-01        3.053286470193e-05
  1.310000e-01        3.039267859365e-05
  1.320000e-01        3.025354933683e-05
  1.330000e-01        3.011545505452e-05
  1.340000e-01        2.997837461003e-05
  1.350000e-01        2.984228757956e-05
  1.360000e-01        2.970717422572e-05
  1.370000e-01        2.957301547223e-05
  1.380000e-01        2.943979287948e-05
  1.390000e-01        2.930748862102e-05
  1.400000e-01        2.917608546102e-05
  1.410000e-01        2.904556673250e-05
  1.420000e-01        2.891591631645e-05
  1.430000e-01        2.878711862166e-05
  1.440000e-01        2.865915856542e-05
  1.450000e-01        2.853202155481e-05
  1.460000e-01        2.840569346886e-05
  1.470000e-01        2.828016064121e-05
  1.480000e-01        2.815540984355e-05
  1.490000e-01        2.803142826959e-05
  1.500000e-01        2.790820351973e-05
  1.510000e-01        2.778572358616e-05
  1.520000e-01        2.766397683867e-05
  1.530000e-01        2.754295201092e-05
  1.540000e-01        2.742263818715e-05
  1.550000e-01        2.730302478954e-05
  1.560000e-01        2.718410156590e-05
  1.570000e-01        2.706585857793e-05
  1.580000e-01        2.694828618979e-05
  1.590000e-01        2.683137505723e-05
  1.600000e-01        2.671511611703e-05
  1.610000e-01        2.659950057688e-05
  1.620000e-01        2.648451990558e-05
  1.630000e-01        2.637016582368e-05
  1.640000e-01        2.625643029442e-05
  1.650000e-01        2.614330551498e-05
  1.660000e-01        2.603078390814e-05
  1.670000e-01        2.591885811415e-05
  1.680000e-01        2.580752098296e-05
  1.690000e-01        2.569676556673e-05
  1.700000e-01        2.558658511260e-05
  1.710000e-01        2.547697305573e-05
  1.720000e-01        2.536792301263e-05
  1.730000e-01        2.525942877467e-05
  1.740000e-01        2.515148430192e-05
  1.750000e-01        2.504408371711e-05
  1.760000e-01        2.493722129990e-05
  1.770000e-01        2.483089148132e-05
  1.780000e-01        2.472508883845e-05
  1.790000e-01        2.461980808923e-05
  1.800000e-01        2.451504408752e-05
  1.810000e-01        2.441079181833e-05
  1.820000e-01        2.430704639321e-05
  1.830000e-01        2.420380304581e-05
  1.840000e-01        2.410105712765e-05
  1.850000e-01        2.399880410395e-05
  1.860000e-01        2.389703954971e-05
  1.870000e-01        2.379575914588e-05
  1.880000e-01        2.369495867570e-05
  1.890000e-01        2.359463402113e-05
  1.900000e-01        2.349478115947e-05
  1.910000e-01        2.339539616005e-05
  1.920000e-01        2.329647518109e-05
  1.930000e-01        2.319801446663e-05
  1.940000e-01        2.310001034360e-05
  1.950000e-01        2.300245921900e-05
  1.960000e-01        2.290535757714e-05
  1.970000e-01        2.280870197708e-05
  1.980000e-01        2.271248905002e-05
  1.990000e-01        2.261671549693e-05
  2.000000e-01        2.252137808615e-05
  2.010000e-01        2.242647365117e-05
  2.020000e-01        2.233199908842e-05
  2.030000e-01        2.223795135518e-05
  2.040000e-01        2.214432746757e-05
  2.050000e-01        2.205112449858e-05
  2.060000e-01        2.195833957619e-05
  2.070000e-01        2.186596988157e-05
  2.080000e-01        2.177401264736e-05
  2.090000e-01        2.168246515593e-05
  2.100000e-01        2.159132473781e-05
  2.110000e-01        2.150058877012e-05
  2.120000e-01        2.141025467505e-05
  2.130000e-01        2.132031991842e-05
  2.140000e-01        2.123078200829e-05
  2.150000e-01        2.114163849362e-05
  2.160000e-01        2.105288696294e-05
  2.170000e-01        2.096452504313e-05
  2.180000e-01        2.087655039821e-05
  2.190000e-01        2.078896072818e-05
  2.200000e-01        2.070175376789e-05
  2.210000e-01        2.061492728597e-05
  2.220000e-01        2.052847908379e-05
  2.230000e-01        2.044240699446e-05
  2.240000e-01        2.035670888185e-05
  2.250000e-01        2.027138263970e-05
  2.260000e-01        2.018642619064e-05
  2.270000e-01        2.010183748544e-05
  2.280000e-01        2.001761450206e-05
  2.290000e-01        1.993375524493e-05
  2.300000e-01        1.985025774413e-05
  2.310000e-01        1.976712005467e-05
  2.320000e-01        1.968434025574e-05
  2.330000e-01        1.960191645004e-05
  2.340000e-01        1.951984676310e-05
  2.350000e-01        1.943812934262e-05
  2.360000e-01        1.935676235790e-05
  2.370000e-01        1.927574399915e-05
  2.380000e-01        1.919507247700e-05
  2.390000e-01        1.911474602188e-05
  2.400000e-01        1.903476288352e-05
  2.410000e-01        1.895512133039e-05
  2.420000e-01        1.887581964925e-05
  2.430000e-01        1.879685614461e-05
  2.440000e-01        1.871822913832e-05
  2.450000e-01        1.863993696906e-05
  2.460000e-01        1.856197799195e-05
  2.470000e-01        1.848435057812e-05
  2.480000e-01        1.840705311430e-05
  2.490000e-01        1.833008400244e-05
  2.500000e-01        1.825344165930e-05
  2.510000e-01        1.817712451614e-05
  2.520000e-01        1.810113101832e-05
  2.530000e-01        1.802545962500e-05
  2.540000e-01        1.795010880878e-05
  2.550000e-01        1.787507705540e-05
  2.560000e-01        1.780036286346e-05
  2.570000e-01        1.772596474406e-05
  2.580000e-01        1.765188122059e-05
  2.590000e-01        1.757811082840e-05
  2.600000e-01        1.750465211457e-05
  2.610000e-01        1.743150363764e-05
  2.620000e-01        1.735866396736e-05
  2.630000e-01        1.728613168446e-05
  2.640000e-01        1.721390538040e-05
  2.650000e-01        1.714198365718e-05
  2.660000e-01        1.707036512710e-05
  2.670000e-01        1.699904841256e-05
  2.680000e-01        1.692803214584e-05
  2.690000e-01        1.685731496894e-05
  2.700000e-01        1.678689553337e-05
  2.710000e-01        1.671677249997e-05
  2.720000e-01        1.664694453874e-05
  2.730000e-01        1.657741032866e-05
  2.740000e-01        1.650816855754e-05
  2.750000e-01        1.643921792185e-05
  2.760000e-01        1.637055712657e-05
  2.770000e-01        1.630218488503e-05
  2.780000e-01        1.623409991879e-05
  2.790000e-01        1.616630095749e-05
  2.800000e-01        1.609878673869e-05
  2.810000e-01        1.603155600777e-05
  2.820000e-01        1.596460751782e-05
  2.830000e-01        1.589794002945e-05
  2.840000e-01        1.583155231075e-05
  2.850000e-01        1.576544313711e-05
  2.860000e-01        1.569961129116e-05
  2.870000e-01        1.563405556262e-05
  2.880000e-01        1.556877474824e-05
  2.890000e-01        1.550376765163e-05
  2.900000e-01        1.543903308326e-05
  2.910000e-01        1.537456986027e-05
  2.920000e-01        1.531037680642e-05
  2.930000e-01        1.524645275201e-05
  2.940000e-01        1.518279653378e-05
  2.950000e-01        1.511940699482e-05
  2.960000e-01        1.505628298450e-05
  2.970000e-01        1.499342335837e-05
  2.980000e-01        1.493082697811e-05
  2.990000e-01        1.486849271144e-05
  3.000000e-01        1.480641943205e-05
  3.010000e-01        1.474460601953e-05
  3.020000e-01        1.468305135928e-05
  3.030000e-01        1.462175434249e-05
  3.040000e-01        1.456071386603e-05
  3.050000e-01        1.449992883242e-05
  3.060000e-01        1.443939814972e-05
  3.070000e-01        1.437912073154e-05
  3.080000e-01        1.431909549693e-05
  3.090000e-01        1.425932137033e-05
  3.100000e-01        1.419979728152e-05
  3.110000e-01        1.414052216559e-05
  3.120000e-01        1.408149496285e-05
  3.130000e-01        1.402271461879e-05
  3.140000e-01        1.396418008404e-05
  3.150000e-01        1.390589031433e-05
  3.160000e-01        1.384784427042e-05
  3.170000e-01        1.379004091804e-05
  3.180000e-01        1.373247922791e-05
  3.190000e-01        1.367515817562e-05
  3.200000e-01        1.361807674164e-05
  3.210000e-01        1.356123391125e-05
  3.220000e-01        1.350462867451e-05
  3.230000e-01        1.344826002623e-05
  3.240000e-01        1.339212696589e-05
  3.250000e-01        1.333622849765e-05
  3.260000e-01        1.328056363031e-05
  3.270000e-01        1.322513137722e-05
  3.280000e-01        1.316993075631e-05
  3.290000e-01        1.311496079001e-05
  3.300000e-01        1.306022050524e-05
  3.310000e-01        1.300570893337e-05
  3.320000e-01        1.295142511017e-05
  3.330000e-01        1.289736807582e-05
  3.340000e-01        1.284353687483e-05
  3.350000e-01        1.278993055603e-05
  3.360000e-01        1.273654817256e-05
  3.370000e-01        1.268338878179e-05
  3.380000e-01        1.263045144535e-05
  3.390000e-01        1.257773522906e-05
  3.400000e-01        1.252523920292e-05
  3.410000e-01        1.247296244107e-05
  3.420000e-01        1.242090402177e-05
  3.430000e-01        1.236906302737e-05
  3.440000e-01        1.231743854432e-05
  3.450000e-01        1.226602966305e-05
  3.460000e-01        1.221483547807e-05
  3.470000e-01        1.216385508783e-05
  3.480000e-01        1.211308759478e-05
  3.490000e-01        1.206253210530e-05
  3.500000e-01        1.201218772969e-05
  3.510000e-01        1.196205358214e-05
  3.520000e-01        1.191212878072e-05
  3.530000e-01        1.186241244735e-05
  3.540000e-01        1.181290370777e-05
  3.550000e-01        1.176360169153e-05
  3.560000e-01        1.171450553197e-05
  3.570000e-01        1.166561436618e-05
  3.580000e-01        1.161692733500e-05
  3.590000e-01        1.156844358299e-05
  3.600000e-01        1.152016225841e-05
  3.610000e-01        1.147208251319e-05
  3.620000e-01        1.142420350293e-05
  3.630000e-01        1.137652438687e-05
  3.640000e-01        1.132904432787e-05
  3.650000e-01        1.128176249239e-05
  3.660000e-01        1.123467805047e-05
  3.670000e-01        1.118779017572e-05
  3.680000e-01        1.114109804529e-05
  3.690000e-01        1.109460083985e-05
  3.700000e-01        1.104829774359e-05
  3.710000e-01        1.100218794420e-05
  3.720000e-01        1.095627063281e-05
  3.730000e-01        1.091054500403e-05
  3.740000e-01        1.086501025591e-05
  3.750000e-01        1.081966558991e-05
  3.760000e-01        1.077451021089e-05
  3.770000e-01        1.072954332712e-05
  3.780000e-01        1.068476415021e-05
  3.790000e-01        1.064017189514e-05
  3.800000e-01        1.059576578023e-05
  3.810000e-01        1.055154502712e-05
  3.820000e-01        1.050750886074e-05
  3.830000e-01        1.046365650933e-05
  3.840000e-01        1.041998720440e-05
  3.850000e-01        1.037650018070e-05
  3.860000e-01        1.033319467625e-05
  3.870000e-01        1.029006993226e-05
  3.880000e-01        1.024712519320e-05
  3.890000e-01        1.020435970669e-05
  3.900000e-01        1.016177272356e-05
  3.910000e-01        1.011936349781e-05
  3.920000e-01        1.007713128656e-05
  3.930000e-01        1.003507535011e-05
  3.940000e-01        9.993194951863e-06
  3.950000e-01        9.951489358319e-06
  3.960000e-01        9.909957839090e-06
  3.970000e-01        9.868599666864e-06
  3.980000e-01        9.827414117394e-06
  3.990000e-01        9.786400469486e-06
  4.000000e-01        9.745558004984e-06
  4.010000e-01        9.704886008759e-06
  4.020000e-01        9.664383768692e-06
  4.030000e-01        9.624050575660e-06
  4.040000e-01        9.583885723526e-06
  4.050000e-01        9.543888509125e-06
  4.060000e-01        9.504058232246e-06
  4.070000e-01        9.464394195627e-06
  4.080000e-01        9.424895704933e-06
  4.090000e-01        9.385562068749e-06
  4.100000e-01        9.346392598566e-06
  4.110000e-01        9.307386608766e-06
  4.120000e-01        9.268543416613e-06
  4.130000e-01        9.229862342234e-06
  4.140000e-01        9.191342708615e-06
  4.150000e-01        9.152983841581e-06
  4.160000e-01        9.114785069787e-06
  4.170000e-01        9.076745724704e-06
  4.180000e-01        9.038865140609e-06
  4.190000e-01        9.001142654572e-06
  4.200000e-01        8.963577606440e-06
  4.210000e-01        8.926169338833e-06
  4.220000e-01        8.888917197122e-06
  4.230000e-01        8.851820529426e-06
  4.240000e-01        8.814878686594e-06
  4.250000e-01        8.778091022197e-06
  4.260000e-01        8.741456892512e-06
  4.270000e-01        8.704975656516e-06
  4.280000e-01        8.668646675869e-06
  4.290000e-01        8.632469314907e-06
  4.300000e-01        8.596442940625e-06
  4.310000e-01        8.560566922671e-06
  4.320000e-01        8.524840633332e-06
  4.330000e-01        8.489263447523e-06
  4.340000e-01        8.453834742776e-06
  4.350000e-01        8.418553899226e-06
  4.360000e-01        8.383420299606e-06
  4.370000e-01        8.348433329230e-06
  4.380000e-01        8.313592375984e-06
  4.390000e-01        8.278896830318e-06
  4.400000e-01        8.244346085228e-06
  4.410000e-01        8.209939536253e-06
  4.420000e-01        8.175676581459e-06
  4.430000e-01        8.141556621429e-06
  4.440000e-01        8.107579059254e-06
  4.450000e-01        8.073743300523e-06
  4.460000e-01        8.040048753308e-06
  4.470000e-01        8.006494828158e-06
  4.480000e-01        7.973080938086e-06
  4.490000e-01        7.939806498559e-06
  4.500000e-01        7.906670927488e-06
  4.510000e-01        7.873673645219e-06
  4.520000e-01        7.840814074519e-06
  4.530000e-01        7.808091640569e-06
  4.540000e-01        7.775505770952e-06
  4.550000e-01        7.743055895646e-06
  4.560000e-01        7.710741447007e-06
  4.570000e-01        7.678561859767e-06
  4.580000e-01        7.646516571019e-06
  4.590000e-01        7.614605020208e-06
  4.600000e-01        7.582826649123e-06
  4.610000e-01        7.551180901883e-06
  4.620000e-01        7.519667224931e-06
  4.630000e-01        7.488285067024e-06
  4.640000e-01        7.457033879221e-06
  4.650000e-01        7.425913114873e-06
  4.660000e-01        7.394922229617e-06
  4.670000e-01        7.364060681364e-06
  4.680000e-01        7.333327930288e-06
  4.690000e-01        7.302723438818e-06
  4.700000e-01        7.272246671631e-06
  4.710000e-01        7.241897095638e-06
  4.720000e-01        7.211674179978e-06
  4.730000e-01        7.181577396004e-06
  4.740000e-01        7.151606217282e-06
  4.750000e-01        7.121760119573e-06
  4.760000e-01        7.092038580829e-06
